<Actel_Data_File>
    <format name="NVM File" version="01.00.00"/>
    <header>
        <die>
            M2S010
        </die>
        <family>
            SmartFusion2
        </family>
        <module>
            
        </module>
        <package>
            400 VF
        </package>
        <version>
            2021.2.0.11
        </version>
    </header>
    <nvm>
        <region name="PROGRAM" address="0x000000" retrieveAddressFromFile="false" size="11888" format="HEX" type="Data Storage" wordSize="8" numberWords="11888" memFile="D:\Clients\AlfheimSystems\SID_PLAYER\CPU\SID_PLAYER\Release\SID_PLAYER.hex" memType="INTELHEX" memFileTimeStamp="" clientType="public" program="true">
            <read_protect/>
            <fabric_accessible/>
            <mss_accessible/>
            00000120910100007f030000810300008303000085030000870300000000
            0000000000000000000000000000890300008b030000000000008d030000
            8f03000091030000930300009503000097030000990300009b0300009d03
            00009f030000a1030000a3030000a5030000a7030000a9030000ab030000
            d5100000af030000b1030000b3030000b5030000b7030000b9030000bb03
            0000bd030000bf030000c1030000c3030000c5030000c7030000c9030000
            cb030000cd030000cf030000d1030000d3030000d5030000d7030000d903
            0000db030000dd030000df030000e1030000e3030000e5030000e7030000
            e9030000eb030000ed030000ef030000f1030000f3030000f5030000f703
            0000f9030000fb030000fd030000ff030000010400000304000005040000
            07040000090400000b0400000d0400000f04000011040000130400001504
            000017040000190400001b0400001d0400001f0400002104000023040000
            2504000027040000290400002b0400002d0400002f040000310400003304
            000000000000000000004ff0000bdff8be020068dff8b612096801f00301
            00f01c00142801d14bf0020b002901d04bf0010bbbf1000f05d0a748a749
            dff8722200f09ff8a64880470bf0020abaf1000f0cd0dff86e02dff86e12
            02680b680fb44ff000024ff0ff0302600b609d484ff000024ff001030228
            08d1dff83a120a60dff83e120a60dff832120b60012808d1dff82a120a60
            dff826120a60dff81a120b609048002809d190489049914a00f030f89048
            9149914a00f02bf891489149924a00f026f891489249dff8e22100f058f8
            bbf1000f10d08f488f49dff8d62100f04ff80bf0020abaf1000f05d00fbc
            02600b6000bfaff30080dff820020ff2030e00474ff000004ff00001dff8
            14f2fee72de9f841884225d0b2eb010200d5fee740ea010313f0030302d0
            00f01df819e04ff0000390461211f7d09a421cbff0c8f0c103f10103f8d1
            08f00f08b8f1000f08d004780c7000f1010001f10101b8f10108f6d1bde8
            f88108b54ff0000303780b7000f1010001f10101013af7d108bd884237d0
            00f00306002e14d04ff00405a5eb06044ff0080707fb06f8914669fa08f9
            002c07d080f8009069fa07f900f10100013cf5e74ff000060f46091a8846
            0911914614461546b14206d018bfa0e8340206f10106b142f8d108f00f08
            b8f1000f07d002704fea322200f10100b8f10108f4e77047fee7fee7fee7
            fee7fee7fee7fee7fee7fee7fee7fee7fee7fee7fee7fee7fee7fee7fee7
            fee7fee7fee7fee7fee7fee7fee7fee7fee7fee7fee7fee7fee7fee7fee7
            fee7fee7fee7fee7fee7fee7fee7fee7fee7fee7fee7fee7fee7fee7fee7
            fee7fee7fee7fee7fee7fee7fee7fee7fee7fee7fee7fee7fee7fee7fee7
            fee7fee7fee7fee7fee7fee7fee7fee7fee7fee7fee7fee7fee7fee7fee7
            fee7fee7fee7fee7fee7fee7fee7fee7fee7fee7fee7fee7fee770470000
            0000a2a2a2a2008003400880034010800340308003403480034038800340
            18080240000000f000200000012045140000000000000000000000000000
            0000000090010000b0040000b0040000302a0000302a0000000000204004
            002040040020000500200005002000f00020851400003511000000000000
            10b5054c237833b9044b13b10448aff300800123237010bd400400200000
            00000c2a000008b5034b1bb103490348aff3008008bd0000000044040020
            0c2a000001607047006870470eb503fa01f303ea020301686fea020201ea
            020141ea030101600ebd006800ea020020fa01f070470180704700887047
            0eb503fa01f303ea020301886fea020201ea020141ea030101800ebd0088
            00ea020020fa01f0704701707047007870470eb503fa01f303ea02030178
            6fea020201ea020141ea030101700ebd007800ea020020fa01f070470138
            38b50b280ad8dfe800f00b152e49095b697a09849b06544b187838bd0020
            38bd524bd888421cda8000f1a040bde83840fff7cfbf4d4de888431c00f1
            a040eb80fff7c7ffeb8804465a1c03f1a040ea80fff7bfff44ea002080b2
            00f1a040bde83840fff7b6bf404de888431c00f1a040eb80fff7aeffeb88
            04465a1c03f1a040ea80fff7a6ff6b7844ea0020184480b200f1a040bde8
            3840fff79bbf334de888431c00f1a040eb80fff793ffeb8804465a1c03f1
            a040ea80fff78bffab78e3e72a4bd888421c00f1a040da80fff781ffbde8
            384000f1a040fff77bbf234ce088431c00f1a040e380fff773ff63781844
            c0b200f1a040bde83840fff76abf1a4ce088431c00f1a040e380fff762ff
            a378ede7154ce088431c00f1a040e380fff758ff63780344d8b200f1a040
            9cb2fff750ff0346601cc0b21c4600f1a04087e70a4de888431c00f1a040
            eb80fff741ff044600f1a040fff73cff0346601cc0b21c4600f1a040a7e7
            00bf60040020023870b50c460a2809d8dfe800f009284e08606f81088ba2
            0600584b197070bd564ef088431c00f1a040f380fff71afff38805465a1c
            03f1a040f280fff712ff45ea002000f47c43b3f5544f80b220d02146bde8
            704000f1a040fff701bf474ef088431c00f1a040f380fff7fbfef3880546
            5a1c03f1a040f280fff7f3fe737845ea0020184400f47c43b3f5544f80b2
            ded100f01f00800000f1a2402146bde8704000f54040fff7abbe344ef088
            431c00f1a040f380fff7d5fef38805465a1c03f1a040f280fff7cdfeb378
            d8e72b4bd888421c00f1a040da80fff7c3fe2146bde8704000f1a040fff7
            babe234de888431c00f1a040eb80fff7b4fe6b781844c0b22146bde87040
            00f1a040fff7a8be1a4de888431c00f1a040eb80fff7a2feab78ece7154d
            e888431c00f1a040eb80fff798fe6b780344d8b200f1a0409db2fff790fe
            0346681cc0b21d4600f1a04074e70a4ef088431c00f1a040f380fff781fe
            054600f1a040fff77cfe0346681cc0b21d4600f1a040a5e700bf60040020
            023870b50c460a2809d8dfe800f0092808084e5d080808080600344b1970
            70bd324de888023880b200f1a040fff75afeeb880546581e80b200f1a040
            fff752fe45ea002000f47c43b3f5544f80b220d02146bde8704000f1a040
            fff741be234ef088023880b200f1a040fff73bfef3880546581e80b200f1
            a040fff733fe737845ea0020184400f47c43b3f5544f80b2ded100f01f00
            800000f1a2402146bde8704000f54040fff7ebbd104bd888013880b200f1
            a040fff715fe2146bde8704000f1a040fff70cbe084de888013880b200f1
            a040fff706fe6b782146bde870401844c0b200f1a040fff7fabd60040020
            f8b5a44ce088431c00f1a040e380fff7f1fda14b13f8102003eb40035d78
            372a62d8dfe812f03800c902ac02a3029a029102770266025d024b024902
            360221021f021a02150210020b020602ed01e001e501ab01ca01ba01d801
            9f0173013f012f0127011d0100016100ee00eb00cf00b700dd00a7008400
            62006200fb02f902f402ef02e902e302dd02d6023d033603280325032f03
            28462578fff7c1fd22797e4902f001031d440544abb2df050b80d9b24cbf
            42f0010202f0fe022170002940f0178342f002021e0640f10d8342f08003
            19465ab203f00100b0ebd11f40f02f8222f040022271f8bde078ff2802d0
            0130c0b2e07000f1a04000f58070fff779fde378654dff2b288002d00133
            dbb2e37003f1a04000f58070fff76bfd2b8843ea00239bb25a1c2b80e280
            f8bd2846fff776fd2379c60703f00102c0f347014cbf43f0010303f0fe03
            41eac211544e284623713170fff7dbfe96f900303278002b237980f2ab82
            43f0800323f002032371f8bd2846fff753fd2379070603f0010141ea4001
            4cbf43f0010303f0fe03c9b2dce7e078ff2802d00130c0b2e07000f1a040
            00f58070fff724fd2379207000285cd0020603f0fd0330d563f07f032371
            f8bde078217900f1a04000f58070fff70efde378002b86d0013be370f8bd
            e078ff2802d00130c0b2e07000f1a04000f58070fff7fefc2071f8bde078
            2178e2e72846fff70cfd2278254b02431870227023795ab3120603f0fd03
            ced403f07f032371f8bd2846fff7fafc03461b4f1b4e4108284633703980
            fff769fe3a882379002a40f0588243f0020303f07f033278d10740f1e980
            43f001032371f8bd2846fff7ddfc2379a0700028a2d143f00203d4e72846
            fff7d3fc23796070002898d1f4e72846fff7cbfc23792070002890d1ece7
            60040020d4150000d20400205c040020e188e078013100f1a04000f58070
            c1f30721fff79bfce07810b10138c0b2e070a17900f1a040013100f58070
            c9b2fff78dfce3780bb1013be370e088b34d431c00f1a040e380fff783fc
            e38828805a1c03f1a040e280fff77bfc2b8843ea00239bb22b80e380f8bd
            e088a84e431c00f1a040e380fff76cfce38830805a1c03f1a040e280fff7
            64fc3388022d43ea002080b2308000f0ee81092d7ff4d3ae00f1a040fff7
            55fc3388e080013398b200f1a040fff74dfce38843ea0023e380f8bda378
            22790133dbb2a37063b942f0020202f07f022271f8bda3782279013bdbb2
            a370002bf2d01d0602f0fd02f0d562f07f022271f8bd2846fff740fc411c
            844ec9b228463170fff7b1fd32782379002a7ff42faf59e72846fff730fc
            23787c4980ea030298420870237922707ff421af4be7637822790133dbb2
            6370002bd2d1c4e72846fff71afc411ed8e763782279013bdbb26370002b
            c5d1b7e72846fff70dfca178694b6a4d0a1a92b21a8028702379002a40f0
            498143f0020303f07f0388427ff617af23f001032371f8bd2846fff7f4fb
            6178e5e72846fff7effb2178e0e7237923f040032371f8bd237923f00403
            2371f8bd237923f008032371f8bd2379e0e7e0882579431ce38000f1a040
            05f04005fff7bcfbe28843b213444b4a9bb21380002d3ff42daee380f8bd
            e0882579431ce38000f1a04005f04005fff7a7fbe28843b21344404a9bb2
            1380002debd0f8bd0023e8e7e08894f90450431c00f1a040e380fff793fb
            e28843b21344364a9bb2002d1380d7daf8bde0882579431ce38000f1a040
            05f00205d7e7e0882579431c00f1a040e380fff779fbe28843b21344294a
            9bb229061380bdd4f8bd2846fff783fb2378254a1842237910700cbf43f0
            020303f0fd0302064cbf43f0800303f07f03470640f1c88043f040032371
            f8bde0882579431ce38000f1a04005f002058ee7e0882579431ce38000f1
            a04005f0010585e7e0882579431ce38000f1a04005f0010591e72846fff7
            4efb43009bb2094e03f0fe0128463380fff7bdfc32882379002a40f09c80
            43f0020303f07f03d0057ff53eaf53e6d20400205c0400202846fff731fb
            2278564b0240187022702379002a7ff423ae4de6227823796270002a7ff4
            1cae46e62846a178bde8f840fff7d2bb28466178bde8f840fff7ccbb2846
            2178bde8f840fff7c6bb237943f004032371f8bd237943f008032371f8bd
            23791de62846fff7fffac1432379227803f00100c9b202443a4d3b480a44
            29700280d1b2d0054cbf43f0010303f0fe032170002961d143f002031106
            58d543f08002114653b202f00100b0ebd11f33d042f040022271f8bd6378
            e370f8bd627823792270002a7ff4caadf4e5a27823792270002a7ff4c3ad
            ede5e27823796270002a7ff4bcade6e522782379a270002a7ff4b5addfe5
            160603f0fd037ff5b4ae43f08003b2e603f07f03002a7ff452ad43f00203
            2371f8bd23f040032371f8bd150603f0fd037ff561af43f080035fe702f0
            7f010b460a46f1e402f0fd02e7e4100603f0fd037ff5a5ad43f08003a3e5
            03f07f010a460b46a5e703f0fd039ce7e080f8bd5c040020d20400200246
            4ff07f43002110b50f4c0f482360e2802171fff75afae3780bb1013be370
            e078002100f1a04000f58070fff74efae37823b1013be37001e0fff74ffc
            e388012bfad810bd00bf60040020ff01005000214ff07f43134a10b59288
            124c1348e28023602171fff731fae07810b10138c0b2e07000f1a0400021
            00f58070fff725fae37823b1013be37001e0fff726fce388012bfad84ff0
            402301221a61bff34f8f10bd6804002060040020ff01005080b5a84b84b0
            d3f8982051011ad4d3f89820d20405d4a44ba44ca54e236033601ce0a44a
            92e8030004aa02e90300d3f89c2004a9c2f382120a4412f8082c002a40f0
            1681d3f850119b4a11f0040f9b4b18bf1346954c964e236033600120914b
            97499a6c01f1200542f480129a649a6c42f0f0729a6411f9012f53099b00
            03f1604302f01f0203f5614300fa02f2a942c3f88020c3f88021edd10523
            0021814a884d906c20f0f0709064906c20f4801090648548a2f51332a2f5
            7e722b600360136083609360036113618361d3614ff0a240c5f88810fff7
            71f92368db090193019b2bb1019b013b0193019b002bf9d101214ff0a240
            fff761f9744d744f284600210435fff75af9bd42f8d14ff0a045704f2846
            00210135fff780f9bd42f8d100224ff07f454ff6fc704ff00c214ff0a047
            694bdff89c811d601a71674dd880674b2a7229606b60384600210137fff7
            65f94745f8d12b8803f58d521332b2f5803f0fd85f4fdff8a491a3eb0708
            08eb070080b217f8011f00f1a040fff74ef9b945f4d15848594b01460246
            51f8207f52f840cfc5f829704f68c5f849c05f628768d0f804c09f60077b
            0068c3f804c01f73d1f808c00f69c5f80900c8685168c3f828c0d862d2f8
            08c0108a1f635964d768917caa88c3f848c0df64a3f8500083f85210002a
            4ed04ff480470f214048fff7e4f86888fff7abfe00214ff0402e4ff0010c
            3b4ddff89c80c5f88070d8f84800394b20f04000c8f84800cef85410c3f8
            8011c3f88811c3f88411cef810c0c5f880710a463168304e2248a6fb0161
            0909cef80410c3f880c1c3f888c12f602168c9090291029b2bb1029b013b
            0293029b002bf9d1c0f8882082f00102f1e7012a0bbf4ff40043214b0c4c
            0b4c0c4e23603360eae66888fff762fe1d48fff7c7f807461c48fff7c3f8
            40ea0723ab80a2e700bf0080034080bf76080000002004000020ac150000
            80f0fa0240787d01b3150000003001400430014000c0005164c000510000
            01506004002068040020030c010051180000ea1700007104002060c00051
            00e100e0000008421f85eb5140420f001503005014030050042a00004ff6
            02020c4bd3f84c11914206d00b4a536943f400735361fef7eabfd3f89820
            42f48072c3f89820d3f8982022f08062c3f89820ebe700bf0080034000ed
            00e070b50d4e0d4d761bb61006d0002455f8043b01349847a642f9d1094e
            094d01f0b3fa761bb61006d0002455f8043b01349847a642f9d170bd242a
            0000242a00002c2a0000242a0000024b13b1024800f005b8704700000000
            ed140000002301461a46184600f01ab838b5084b084d5b1b9c1007d0043b
            1d44013c55f804399847002cf9d1bde8384001f084ba302a00002c2a0000
            704700bf704700bf2de9f047dff880a00646daf8000098460f469146fff7
            f0ff1a4b1b68d3f8484124b365681f2d26dc5eb96b1c0235daf800006360
            44f82570fff7e0ff0020bde8f087012304eb8501c1f88890d4f88821ab40
            1a43022ec4f88821c1f80881e4d1d4f88c211343c4f88c31dee703f5a674
            c3f84841d5e7daf80000fff7bfff4ff0ff30dce7082a0000300400200001
            00010202030332333435363738393a3b3c3d3e3f40414243444546474849
            4a4b4c4d4e4f50510a00220a380e390a210622060206390624002201020c
            3a012102220202023902090d220b380e390b21072207020739070d002204
            210c390421032203020339031c02010a380e3b0a0606010627063b062600
            0101270c3a010602010227023b02070d010b380e3b0b2107010727073b07
            2c000104210c3b042103010327033b032900170a380e3c0a210617062006
            3c0623001701200c3d011b02170220023c020b0d170b380e3c0b21071707
            20073c070f001704210c3c042103170320033c032a00000a380e3e0a2106
            000628063e0625000001280c3f011b09000228023e020c0d000b380e3e0b
            2107000728073e072e000004210c3e042103000328033e0321012f0a2101
            400a31062f063006400616002101350c410131022f0230024002030d2f0b
            380e420b31072f073008400837002f04360c430444032f03450442041f01
            1d0a1e01460a1f061d061e06460633001d01320c46011f021d021e024602
            040d1d0b380e460b1f071d071e08460810001d04340c47041f031d031e04
            46041301110a2101480a13061106140648061a001101150c490113021102
            14024802080d110b380e480b21071107140748070e001104210c48042103
            11031403480312012b0a21014a0a12062b0618064a0619002b01210c2b01
            12022b0218024a02050d2b0b380e4a0b21072b0718074a072d002b04210c
            4a0421032b0318034a03505349440002007c00000c000c03000200010000
            000043616e74696e612042616e6400000000000000000000000000000000
            000000004d61726b7573204b6c65696e20284c4d616e2900000000000000
            000000000000323031382043656e736f722044657369676e000000000000
            0000000000000000002400000000000c4c070c4c940c000a0a0aa8a284a9
            00ca9d5612d0faa9008dd8128dd5128d920c8d060ca9018d53128dd912a9
            0f8d930c8dd412b9b2138d54128d5512c9021007a8b9f7158d5512a20020
            530ca20720530ca20eb9ac139dda129ddc12b9ad139ddb129ddd12c8c8a9
            019d5a129daa129dac129d8612a9009d9812600000000000000000000000
            000000000000000000000000000020e60cad900c8d15d4ad910c8d16d4ad
            920c8d17d4ad930c8d18d4a20020bb0ca20720bb0ca20ebd7b0c9d00d4bd
            7c0c9d01d4bd810c9d06d4bd800c9d05d4bd7d0c9d02d4bd7e0c9d03d4bd
            7f0c9d04d460ce53121032add912f00bced912a9018d53124c1d0dad5412
            c9021018acd812b9f7158d5512c8b9f7151003297fa88cd812ad55128d53
            12a000d0034c8f0dced6121052acd7128c1e0df05eb96115102329708dd5
            120dd4128d930cb962158d920cb96315c9fff0068d850d8d910ca9008d7c
            0d8dd612b96415d009add7121869044c750dc97fd005a9004c750d0a0a8d
            d7124c8f0da900187962158d7c0da9007963158d850d8d910cad5312d003
            4c6b0ecd5512d0034cd90ea20020ab0da20720ab0da20ead5312dd5612d0
            05de581230034cda0fa9009d5a128d2c0ebc8012b9e91385fcb9001485fd
            bc8112b1fcc9c0b031c95f9015e9601009a9809d5a12c84cd30d48c8b1fc
            8d2c0e68c903b02dfe5a12e900300549fe9d8212ad2c0ef0384c2d0ec9f0
            3009290f9d7112c84cd30de9bf9d6d12feac12c84cd30d9d6e12a9009d5c
            12a900c94090069d5b124c3f0e9d5c12a9009d6c12c8f00a989d8112b1fc
            c9bfd003feaa12bd71129d5812bdab129d5912bd5a1210034cc10fd0034c
            1e0f4ce20fa20020770ea20720770ea20ebdaa12f05238e9019d8112bddc
            1285fcbddd1285fda000b1fc100938e9a09dab12c8b1fc9d8012c8b1fcc9
            f09017290348c8b1fc187dda129ddc12687ddb129ddd124cc90e98187ddc
            129ddc129003fedd12a9009daa12bd8612f0034c470f4ce20fa20020e50e
            a20720e50ea20ebd6e12187d59129d6f12bd8212f0039d7012bc5a12f00c
            bd70123d85129d7f0c4c130fa9ff9d70123d85129d7f0ca9009d86129d82
            124c6c10bc6d12b965149d810ca90f9d800cb94b149d8612300729104a9d
            7f0c60a9fe9d70123d85129d7f0c60bc6d12bdac12f013a9009dac12b97f
            149dae12b94b14290f9d5612b931149d810cb917149d800ca9019d7f0cb9
            cd149daf12b9b314f020100e9d7e0ca9009d7d0c9d97124c9e0f0a0a9d97
            129d9912a9009d9812bc6d12b99914f01e100f0a8d910ca9008d900c8d1e
            0d4cc10f0a0a8d1e0d8dd712a9008dd612a9009dc0129dad129d6c12bd6e
            12187d5912dd6f127ec31260bd8612f003300160bc9712f047de98121045
            bd99129d9712f03aa8b99215c9fff00e9d96129d7e0c29f09d95129d7d0c
            b99015297f9d9812b99315d009bd99121869044c2b10c97fd005a9004c2b
            100a0a9d99124cc110b99015301bbd9512187991159d95129d7d0cbd9612
            69009d96129d7e0c4cc110bd951238f991159d95129d7d0cbd9612e9009d
            96129d7e0c4cc110bd5b12d0034cc110c980b012291f0a0a8dd7128d1e0d
            a9008dd6124cbc10c9b0b0160a0a0a0a85fcbc6d12b91714290f05fc9d80
            0c4cbc10c9e0b014290f85fcbc6d12b9311429f005fc9d810c4cbc10a900
            9d5b12bcaf12f0034cea11bd5c12d00cbc6f12bd5a123001604c4012c920
            b052bc6c12d015290fa8fe6c12b9d7159dc112b9e7159dc212bd5c12c910
            b01abd8312187dc1129d83129d7b0cbd84127dc2129d84129d7c0c60bd83
            1238fdc1129d83129d7b0cbd8412fdc2129d84129d7c0c60c930b043bc6c
            12d023fe6c12290f0aa8a9009dc3129dc212b9b7159d9a124a9d9b12b9b8
            150a3ec2129dc112de9b12100ebd9a129d9b12bdc31249809dc312bdc312
            30a24cfc10290fa8bdc3121027bd83121879d7159d8312bd841279e7159d
            8412bc6f12bd8312d9ec12bd8412f94c13903a4cca11bd831238f9d7159d
            8312bd8412f9e7159d8412bc6f12bd8312d9ec12bd8412f94c13b013b9ec
            129d83129d7b0cb94c139d84129d7c0c60bd83129d7b0cbd84129d7c0c60
            dead121042bdae129dad12b9e6149db012b92515c910900fc9e09002290f
            9d85123d70129d7f0cb9e714c97ef015c8c97fd004b92515a8b92515f007
            c910b0039dad12989daf12bdb0121005297f4c3f12187d6f12a8b9ec129d
            83129d7b0cb94c139d84129d7c0c60010505010100000100000101000001
            0000010100000100000000000000ff000000000000ff000000000000ff00
            000000000000000000000000000000000000000000000000000000000000
            000000000000000000000000010001000000000100010000000001000100
            0000008000000000000080000000000000800000000000000f0000000000
            0000000000000000000000000000000000001627384b5f738aa1bad4f00e
            2d4e7196bde7134274a9e01b5a9be22c7bce2785e851c137b437c457f59c
            4e09d0a3826e686e88afeb399c13a14604dcd0dc105ed6723826428c08b8
            a0b820bcace4704c841810704070407858c8e0980830202e010101010101
            010101010102020202020202030303030304040404050505060606070708
            0809090a0a0b0c0d0d0e0f10111213141517181a1b1d1f20222427292b2e
            3134373a3e4145494e52575c62686e757c838b939ca5afb9c4d0ddeaf8fd
            bc13c713d2130007dd13e113e5130507a00aa00306070b0e13f002a00aa0
            0104080c0f11f002a00aa00205090d1012f002a014f000a015f000a016f0
            00fb017dd14eb9138e0b7adde056be24a0062e99da587190151616161717
            1818191919191a1a1b1b1c1c1c1c1d1d1d27002421214020000221204040
            2400a209cf253324b127202421f839843686f044b720368ae3a38439a860
            fa76346018a3faaaf1010101010101010101010101010101010101010101
            010101010100000000000000000000000000000000000000191900000000
            000000000000000000000000000000000000000000000000000000000200
            000000000200000007000000000000000000000008000000008689890202
            0000890002020000000005058389000088880203070c1014161a1c1a1421
            16162607032b312d333716163a3c3e007f0100007fb00c0c167f0c0c0c7f
            dfb2df7fdf7fda00007f007fb0c013007fdf110c0c7f0c0c0c007f007fda
            a000a0007fdfaadf7fdfaa7f007f007f007f000011112000131502140021
            11110081508011810c816121006100131515600081151111002111111100
            1100df1161116100811180008111378100150041007f00ff7fa0a6210001
            00f0000400fe0003fffe0003000205a0f63005900318001500020005fff0
            7f000000000000001008ff010000dd000420ff0004e0ff0300002e008152
            ff000150ff060000000000000001500110032004200610026004a0061006
            10061006100610061006100610061000040d203e6cab006cf499604a5c97
            000000000000000001010102030405065505048000ff00000000bfc5f039
            c635c53ec639c539c635c53ec639c5395f3ec635c5f139c8f03e5f395f3e
            c5395f385f395f3701355f375f365f35f16022f05f923a6022c8355f3260
            22c539c635c53ec639c539c635c53ec639c5395f3ec635c53960223739c6
            37c537c637c5f137f00136f15f37f05f3cf16022f039c83cc53760226004
            bfc1f139c7353235f032f13532c8f0355f325f35c7325f3032f15f30f030
            325f302df160232dc8f02df15f29c732353235f032f13532f030f132f03b
            5f323bf15f32f032f15f34f034f12ef030c82ec730f16023bfc2f00e6022
            c9f134c2f0156022c9f134c2f00e6022c9f135c2f0156022c9f132c2f00e
            6022c9f130c2f00c6022c9f12dc2f0116022c9f132c2f0186022c9f121c2
            f00e6022c9f139c213c415c2f00e6022c9f132c2f0136022c4f115c2f013
            6022c9f132c2f0136022c9f132c2f0186022c4f11ac2f01c6022c4f118bf
            c5f039c635c53ec639c539c635c53ec639c5393ec635c53960223739c637
            c53cc637c5f13cf00139f15f37f035f16022f05f326022c8355f326022c5
            32f16022f05f95346036f16022f05f9934f16036f060225f9c366038f160
            225f9f38f0013e013839f101f035f601bfc7f132353235f032f13532f030
            f132f0305f3430f15f34f030325f302df160235f2dc8f02d5f29c75f3939
            c6f189dac7f03a3dc6f12ec7f095daf160dcf05f95df5f33f15f32c6f035
            c737c63a5f37c7f136f034c1f239f735bfc2f00e6022c9f19922c2f01560
            22c9f19922c2f00e6022c9f19222c2f0156022c9f19722c2f00c6022c9f1
            8b22c2f00d6022c9f19422c211c92dc218c932c2f0156022c9f115c2f016
            6022c9f116c2f0116022c9f111c20ec90ec2f0136022c9f130c2f0186022
            c9f134c2f0116022c4f110c2f00e6022c4f10cbfc2f00e6022ca2d6025c2
            156022ca2d6025c20e6022ca2d6025c2156022c3266025c20e6022ca2d60
            25c2156022caf12dc2f00e6022c40ec2f113f06022c4f115c2f00e6022ca
            2d6025c2156022ca2d6025c20e6022ca2d6025c2156022c3266025c20e60
            22ca2d6025c2156022caf12dc2f00f6022c4f10fc218c40cbfc1f039cc41
            c12dcc3e356118c1f139f039cc41c12dcc3e356118c0f239ccf041c12dcc
            3e405f41019caef25f9e35f099d9f16122c0f239ccf041c12dcc3e356118
            c1f139f039cc41c12dcc3e356118c0f239ccf041c12dcc3e405f4101f193
            aaf061da601494aa61226014c0f139bff000cb4501414501d545f101cbf0
            4501414501c1f239cbf0450141435fa53a01a0a8f25fa135f05f9ed9f161
            22c1f239cbf04501414501d545f101cbf04501414501c1f239cbf0450141
            435fa53a01a1a9f15fa335f060d861175f9cd96122c1f139bff100bfc2f0
            0e6022ca326025c2156022ca326025c20e6022ca326025c2156022c32660
            25c20e6022ca326025c2156022caf132c2f00e6022ca326025c2156022ca
            326025c20a6022ca356025c2f10bcaf0356025c20c5f0ccaf135cd0ec40e
            c207c40ac20cc404c2f0116122c4106022c20e6122c40c6022bfc1f039cc
            41c12dcc3e356118c1f139f039cc41c12dcc3e356118c0f23eccf041c12d
            cc3e405f41019caef25f9e35f099d9f16122c03ecbf02e5f325f35c82ecb
            2f5f325f35c82fcb3030012a61d660dacaf132cbf0260130012c5f2dc0f1
            3ccbf02d61d6f560dabff000cb4501414501d545f101cbf04501414501c1
            f23ecbf0450141435fa53a01a0a8f25fa135f05f9ed9f16122c13ed6f03a
            ce3ef141d6f03bce3ef141d6f0375f39013261d660daf12af032cb5f35d6
            39cb5f3ed63ccb39c1f13ccbf03561d660daf46022bfc2f01a5f0ec418c2
            5f0c165f16c415c25f09135f07c411c25f05105f04c40ec25f0e1a5f0ec4
            18c25f0c165f16c415c25f09135f07c411c25f05105f04c40ec25f0e1a5f
            0ec418c25f0c165f16c415c25f09135f07c411c25f05105f04c40ec25f0e
            c40ed026296014286013296013286012296012286013296014bfcff135c8
            f035c0f138c8f038c0f13cc8f03ccf35c0f1383738cf35c8f035c0f138c8
            f038c0f137c8f037cf35c0f1383738cf35c8f035c0f138c8f038c0f137c8
            f037cf35c0f138373835f038c838c037c837c038c838c037c837c038c838
            c037c837c0f138bfc1f235383cf035f1383738f235383cf035f1383738f2
            35383cf035f13837383538373837383738bfcff19562c8f035c0f138c8f0
            38c0f13cc8f03ccf35c0f1383738cf9562c8f035c0f138c8f038c0f137c8
            f037cf35c0f1383738cf9562c8f035c0f138c8f038c0f137c8f037cf35c0
            f13837389562f038c838c037c837c038c838c09762c837c038c838c037c8
            37c0f138bff100d1f232f060aef16022602501d231f30132f16022602561
            da31f301d132f16022602501d23101d021f0296013f128f0296013f128f0
            296013f128f0296013bfc2f01a5f0ec418c25f0c165f16c415c25f09135f
            07c411c25f05105f04c40ec25f0e1a5f0ec418c25f0c165f16c415c25f09
            135f07c411c25f05105f04c40ec25f0e1a5f0ec418c25f0c165f16c415c2
            5f09135f07c411c25f05105f04c40ec25f0e1a5f0ec418c25f0c165f16c4
            15c25f09c40ed324f10124d4f02401bff000d9f57321f001d01361def160
            11fa60def860d0ff0000bff000d8f129d91ff001d82401d071def26112f0
            60def96010f860d0ff0000bff000d718f15f54f06c1f6016f1b4dfd0f01f
            601161def26012f860def860d0ff0000bf00000008000020f8b500bff8bc
            08bc9e467047f8b500bff8bc08bc9e467047cd140000d5040000b1040000
            80bf760880bf760800000000f40200205c030020c4030020000000000000
            000000000000000000000000000000000000000000000000000000000000
            000000000000000000000000000000000000000000000000000000000000
            000000000000000000000000000000000000000000000000000000000000
            000000000000000000000000000000000000000000000000000000000000
            000000000000000000000000000000000000000000000000000001000000
            000000000e33cdab34126de6ecde05000b00000000000000000000000000
            000000000000000000000000000000000000000000000000000000000000
            000000000000000000000000000000000000000000000000000000000000
            000000000000000000000000000000000000000000000000000000000000
            000000000000000000000000000000000000000000000000000000000000
            000000000000000000000000000000000000000000000000000000000000
            000000000000000000000000000000000000000000000000000000000000
            000000000000000000000000000000000000000000000000000000000000
            000000000000000000000000000000000000000000000000000000000000
            000000000000000000000000000000000000000000000000000000000000
            000000000000000000000000000000000000000000000000000000000000
            000000000000000000000000000000000000000000000000000000000000
            000000000000000000000000000000000000000000000000000000000000
            000000000000000000000000000000000000000000000000000000000000
            000000000000000000000000000000000000000000000000000000000000
            000000000000000000000000000000000000000000000000000000000000
            000000000000000000000000000000000000000000000000000000000000
            000000000000000000000000000000000000000000000000000000000000
            000000000000000000000000000000000000000000000000000000000000
            000000000000000000000000000000000000000000000000000000000000
            000000000000000000000000000000000000000000000000000000000000
            000000000000000000000000000000000000000000000000000000000000
            000000000000000000000000000000000000000000000000000000000000
            000000000000000000000000000000000000000000000000000000000000
            000000000000000000000000000000000000000000000000000000000000
            000000000000000000000000000000000000000000000000000000000000
            000000000000000000000000000000000000000000000000000000000000
            000000000000000000000000000000000000000000000000000000000000
            000000000000000000000000000000000000000000000000000000000000
            00000000000000000000000000000000000000000000d404002000000000
            0000000000000000
            <crc>
                71a5
            </crc>
        </region>
    </nvm>
</Actel_Data_File>
